Created as New Dataset,Sample 515 By Analyst Date Thursday, April 01 2021
cm-1,%T,
4000,98.49,
3999,98.49,
3998,98.48,
3997,98.47,
3996,98.47,
3995,98.47,
3994,98.47,
3993,98.46,
3992,98.46,
3991,98.46,
3990,98.46,
3989,98.47,
3988,98.47,
3987,98.47,
3986,98.46,
3985,98.46,
3984,98.46,
3983,98.46,
3982,98.47,
3981,98.47,
3980,98.48,
3979,98.48,
3978,98.48,
3977,98.48,
3976,98.48,
3975,98.48,
3974,98.49,
3973,98.49,
3972,98.49,
3971,98.49,
3970,98.49,
3969,98.49,
3968,98.48,
3967,98.48,
3966,98.48,
3965,98.48,
3964,98.48,
3963,98.48,
3962,98.47,
3961,98.47,
3960,98.47,
3959,98.48,
3958,98.48,
3957,98.48,
3956,98.48,
3955,98.48,
3954,98.49,
3953,98.49,
3952,98.5,
3951,98.5,
3950,98.49,
3949,98.49,
3948,98.49,
3947,98.49,
3946,98.49,
3945,98.49,
3944,98.49,
3943,98.49,
3942,98.49,
3941,98.48,
3940,98.48,
3939,98.48,
3938,98.48,
3937,98.48,
3936,98.48,
3935,98.48,
3934,98.49,
3933,98.49,
3932,98.49,
3931,98.5,
3930,98.5,
3929,98.5,
3928,98.5,
3927,98.49,
3926,98.49,
3925,98.49,
3924,98.48,
3923,98.49,
3922,98.49,
3921,98.49,
3920,98.5,
3919,98.5,
3918,98.51,
3917,98.51,
3916,98.51,
3915,98.51,
3914,98.5,
3913,98.5,
3912,98.5,
3911,98.5,
3910,98.5,
3909,98.5,
3908,98.5,
3907,98.5,
3906,98.5,
3905,98.5,
3904,98.51,
3903,98.51,
3902,98.51,
3901,98.51,
3900,98.51,
3899,98.51,
3898,98.51,
3897,98.52,
3896,98.52,
3895,98.52,
3894,98.52,
3893,98.52,
3892,98.52,
3891,98.52,
3890,98.53,
3889,98.54,
3888,98.54,
3887,98.53,
3886,98.52,
3885,98.51,
3884,98.51,
3883,98.5,
3882,98.49,
3881,98.49,
3880,98.49,
3879,98.5,
3878,98.51,
3877,98.52,
3876,98.52,
3875,98.51,
3874,98.51,
3873,98.52,
3872,98.52,
3871,98.51,
3870,98.5,
3869,98.5,
3868,98.5,
3867,98.5,
3866,98.5,
3865,98.49,
3864,98.5,
3863,98.5,
3862,98.51,
3861,98.51,
3860,98.51,
3859,98.51,
3858,98.51,
3857,98.51,
3856,98.51,
3855,98.51,
3854,98.51,
3853,98.51,
3852,98.51,
3851,98.52,
3850,98.51,
3849,98.51,
3848,98.51,
3847,98.52,
3846,98.52,
3845,98.52,
3844,98.52,
3843,98.53,
3842,98.53,
3841,98.54,
3840,98.54,
3839,98.54,
3838,98.54,
3837,98.53,
3836,98.53,
3835,98.52,
3834,98.51,
3833,98.5,
3832,98.49,
3831,98.49,
3830,98.49,
3829,98.5,
3828,98.51,
3827,98.52,
3826,98.52,
3825,98.52,
3824,98.51,
3823,98.5,
3822,98.5,
3821,98.5,
3820,98.51,
3819,98.52,
3818,98.52,
3817,98.51,
3816,98.5,
3815,98.5,
3814,98.5,
3813,98.5,
3812,98.5,
3811,98.5,
3810,98.51,
3809,98.51,
3808,98.51,
3807,98.51,
3806,98.51,
3805,98.51,
3804,98.51,
3803,98.51,
3802,98.51,
3801,98.51,
3800,98.51,
3799,98.51,
3798,98.5,
3797,98.49,
3796,98.48,
3795,98.49,
3794,98.5,
3793,98.5,
3792,98.51,
3791,98.51,
3790,98.51,
3789,98.5,
3788,98.5,
3787,98.49,
3786,98.5,
3785,98.5,
3784,98.5,
3783,98.51,
3782,98.51,
3781,98.51,
3780,98.51,
3779,98.51,
3778,98.51,
3777,98.51,
3776,98.51,
3775,98.51,
3774,98.51,
3773,98.51,
3772,98.51,
3771,98.51,
3770,98.51,
3769,98.51,
3768,98.51,
3767,98.52,
3766,98.52,
3765,98.52,
3764,98.52,
3763,98.52,
3762,98.52,
3761,98.51,
3760,98.51,
3759,98.51,
3758,98.51,
3757,98.52,
3756,98.52,
3755,98.52,
3754,98.53,
3753,98.53,
3752,98.53,
3751,98.52,
3750,98.52,
3749,98.52,
3748,98.53,
3747,98.53,
3746,98.53,
3745,98.53,
3744,98.53,
3743,98.53,
3742,98.54,
3741,98.53,
3740,98.53,
3739,98.53,
3738,98.54,
3737,98.54,
3736,98.54,
3735,98.55,
3734,98.55,
3733,98.55,
3732,98.55,
3731,98.56,
3730,98.57,
3729,98.58,
3728,98.58,
3727,98.58,
3726,98.58,
3725,98.58,
3724,98.58,
3723,98.58,
3722,98.58,
3721,98.58,
3720,98.59,
3719,98.59,
3718,98.59,
3717,98.59,
3716,98.59,
3715,98.59,
3714,98.58,
3713,98.57,
3712,98.56,
3711,98.56,
3710,98.57,
3709,98.58,
3708,98.59,
3707,98.59,
3706,98.59,
3705,98.59,
3704,98.59,
3703,98.59,
3702,98.6,
3701,98.61,
3700,98.62,
3699,98.61,
3698,98.59,
3697,98.58,
3696,98.58,
3695,98.58,
3694,98.58,
3693,98.59,
3692,98.6,
3691,98.61,
3690,98.62,
3689,98.62,
3688,98.61,
3687,98.6,
3686,98.58,
3685,98.57,
3684,98.57,
3683,98.57,
3682,98.58,
3681,98.59,
3680,98.6,
3679,98.6,
3678,98.6,
3677,98.6,
3676,98.58,
3675,98.57,
3674,98.58,
3673,98.58,
3672,98.57,
3671,98.56,
3670,98.56,
3669,98.56,
3668,98.56,
3667,98.56,
3666,98.55,
3665,98.55,
3664,98.55,
3663,98.56,
3662,98.57,
3661,98.58,
3660,98.57,
3659,98.57,
3658,98.56,
3657,98.55,
3656,98.54,
3655,98.55,
3654,98.55,
3653,98.56,
3652,98.56,
3651,98.56,
3650,98.56,
3649,98.56,
3648,98.56,
3647,98.56,
3646,98.56,
3645,98.55,
3644,98.55,
3643,98.54,
3642,98.54,
3641,98.55,
3640,98.55,
3639,98.56,
3638,98.57,
3637,98.57,
3636,98.58,
3635,98.58,
3634,98.59,
3633,98.59,
3632,98.59,
3631,98.58,
3630,98.56,
3629,98.55,
3628,98.56,
3627,98.56,
3626,98.56,
3625,98.55,
3624,98.54,
3623,98.54,
3622,98.53,
3621,98.53,
3620,98.53,
3619,98.53,
3618,98.54,
3617,98.54,
3616,98.54,
3615,98.53,
3614,98.52,
3613,98.52,
3612,98.51,
3611,98.5,
3610,98.5,
3609,98.49,
3608,98.5,
3607,98.5,
3606,98.5,
3605,98.5,
3604,98.51,
3603,98.51,
3602,98.51,
3601,98.51,
3600,98.51,
3599,98.5,
3598,98.5,
3597,98.49,
3596,98.49,
3595,98.48,
3594,98.48,
3593,98.48,
3592,98.49,
3591,98.49,
3590,98.49,
3589,98.48,
3588,98.47,
3587,98.46,
3586,98.46,
3585,98.45,
3584,98.44,
3583,98.43,
3582,98.43,
3581,98.43,
3580,98.43,
3579,98.42,
3578,98.42,
3577,98.41,
3576,98.4,
3575,98.4,
3574,98.39,
3573,98.39,
3572,98.38,
3571,98.38,
3570,98.37,
3569,98.37,
3568,98.38,
3567,98.38,
3566,98.38,
3565,98.38,
3564,98.37,
3563,98.36,
3562,98.36,
3561,98.36,
3560,98.37,
3559,98.37,
3558,98.37,
3557,98.37,
3556,98.37,
3555,98.37,
3554,98.38,
3553,98.38,
3552,98.38,
3551,98.38,
3550,98.39,
3549,98.4,
3548,98.41,
3547,98.42,
3546,98.42,
3545,98.42,
3544,98.42,
3543,98.42,
3542,98.42,
3541,98.43,
3540,98.43,
3539,98.44,
3538,98.44,
3537,98.44,
3536,98.44,
3535,98.44,
3534,98.43,
3533,98.44,
3532,98.45,
3531,98.47,
3530,98.48,
3529,98.48,
3528,98.48,
3527,98.48,
3526,98.48,
3525,98.49,
3524,98.5,
3523,98.5,
3522,98.5,
3521,98.5,
3520,98.51,
3519,98.51,
3518,98.52,
3517,98.53,
3516,98.54,
3515,98.54,
3514,98.53,
3513,98.53,
3512,98.54,
3511,98.54,
3510,98.55,
3509,98.56,
3508,98.57,
3507,98.58,
3506,98.59,
3505,98.6,
3504,98.6,
3503,98.61,
3502,98.61,
3501,98.6,
3500,98.59,
3499,98.59,
3498,98.59,
3497,98.59,
3496,98.6,
3495,98.6,
3494,98.6,
3493,98.61,
3492,98.61,
3491,98.62,
3490,98.62,
3489,98.62,
3488,98.62,
3487,98.62,
3486,98.61,
3485,98.61,
3484,98.61,
3483,98.62,
3482,98.62,
3481,98.63,
3480,98.64,
3479,98.65,
3478,98.64,
3477,98.63,
3476,98.62,
3475,98.62,
3474,98.61,
3473,98.62,
3472,98.62,
3471,98.63,
3470,98.64,
3469,98.64,
3468,98.64,
3467,98.63,
3466,98.62,
3465,98.61,
3464,98.6,
3463,98.61,
3462,98.61,
3461,98.62,
3460,98.62,
3459,98.62,
3458,98.61,
3457,98.61,
3456,98.6,
3455,98.6,
3454,98.6,
3453,98.59,
3452,98.59,
3451,98.59,
3450,98.6,
3449,98.6,
3448,98.6,
3447,98.6,
3446,98.6,
3445,98.6,
3444,98.6,
3443,98.6,
3442,98.6,
3441,98.59,
3440,98.59,
3439,98.59,
3438,98.59,
3437,98.59,
3436,98.59,
3435,98.58,
3434,98.58,
3433,98.58,
3432,98.57,
3431,98.57,
3430,98.57,
3429,98.56,
3428,98.56,
3427,98.55,
3426,98.55,
3425,98.54,
3424,98.54,
3423,98.53,
3422,98.52,
3421,98.51,
3420,98.5,
3419,98.5,
3418,98.5,
3417,98.5,
3416,98.5,
3415,98.5,
3414,98.51,
3413,98.51,
3412,98.52,
3411,98.53,
3410,98.54,
3409,98.54,
3408,98.54,
3407,98.54,
3406,98.54,
3405,98.54,
3404,98.55,
3403,98.56,
3402,98.57,
3401,98.57,
3400,98.56,
3399,98.55,
3398,98.54,
3397,98.54,
3396,98.54,
3395,98.55,
3394,98.56,
3393,98.56,
3392,98.56,
3391,98.55,
3390,98.55,
3389,98.54,
3388,98.54,
3387,98.54,
3386,98.54,
3385,98.53,
3384,98.52,
3383,98.52,
3382,98.51,
3381,98.5,
3380,98.5,
3379,98.49,
3378,98.49,
3377,98.5,
3376,98.5,
3375,98.5,
3374,98.51,
3373,98.51,
3372,98.51,
3371,98.52,
3370,98.52,
3369,98.52,
3368,98.52,
3367,98.52,
3366,98.51,
3365,98.5,
3364,98.48,
3363,98.47,
3362,98.47,
3361,98.47,
3360,98.47,
3359,98.47,
3358,98.47,
3357,98.47,
3356,98.46,
3355,98.46,
3354,98.46,
3353,98.47,
3352,98.47,
3351,98.47,
3350,98.47,
3349,98.45,
3348,98.43,
3347,98.41,
3346,98.4,
3345,98.39,
3344,98.39,
3343,98.39,
3342,98.39,
3341,98.39,
3340,98.38,
3339,98.37,
3338,98.34,
3337,98.31,
3336,98.27,
3335,98.25,
3334,98.22,
3333,98.2,
3332,98.19,
3331,98.17,
3330,98.15,
3329,98.13,
3328,98.11,
3327,98.09,
3326,98.07,
3325,98.04,
3324,98,
3323,97.97,
3322,97.94,
3321,97.92,
3320,97.91,
3319,97.9,
3318,97.9,
3317,97.9,
3316,97.91,
3315,97.92,
3314,97.94,
3313,97.96,
3312,97.99,
3311,98.03,
3310,98.07,
3309,98.11,
3308,98.15,
3307,98.19,
3306,98.21,
3305,98.21,
3304,98.19,
3303,98.17,
3302,98.16,
3301,98.16,
3300,98.16,
3299,98.18,
3298,98.2,
3297,98.22,
3296,98.25,
3295,98.27,
3294,98.28,
3293,98.29,
3292,98.29,
3291,98.28,
3290,98.27,
3289,98.26,
3288,98.26,
3287,98.26,
3286,98.27,
3285,98.27,
3284,98.26,
3283,98.26,
3282,98.25,
3281,98.25,
3280,98.25,
3279,98.26,
3278,98.27,
3277,98.28,
3276,98.28,
3275,98.29,
3274,98.29,
3273,98.3,
3272,98.3,
3271,98.31,
3270,98.31,
3269,98.31,
3268,98.3,
3267,98.29,
3266,98.29,
3265,98.28,
3264,98.28,
3263,98.29,
3262,98.29,
3261,98.29,
3260,98.29,
3259,98.29,
3258,98.3,
3257,98.3,
3256,98.31,
3255,98.31,
3254,98.31,
3253,98.31,
3252,98.31,
3251,98.31,
3250,98.31,
3249,98.32,
3248,98.33,
3247,98.34,
3246,98.34,
3245,98.34,
3244,98.33,
3243,98.32,
3242,98.31,
3241,98.3,
3240,98.3,
3239,98.3,
3238,98.31,
3237,98.32,
3236,98.33,
3235,98.34,
3234,98.34,
3233,98.33,
3232,98.32,
3231,98.32,
3230,98.32,
3229,98.32,
3228,98.32,
3227,98.31,
3226,98.31,
3225,98.3,
3224,98.3,
3223,98.29,
3222,98.29,
3221,98.29,
3220,98.29,
3219,98.29,
3218,98.29,
3217,98.28,
3216,98.27,
3215,98.26,
3214,98.25,
3213,98.25,
3212,98.24,
3211,98.24,
3210,98.24,
3209,98.24,
3208,98.23,
3207,98.23,
3206,98.22,
3205,98.22,
3204,98.21,
3203,98.21,
3202,98.22,
3201,98.22,
3200,98.22,
3199,98.21,
3198,98.21,
3197,98.21,
3196,98.2,
3195,98.19,
3194,98.18,
3193,98.17,
3192,98.16,
3191,98.15,
3190,98.14,
3189,98.13,
3188,98.12,
3187,98.12,
3186,98.12,
3185,98.12,
3184,98.12,
3183,98.11,
3182,98.11,
3181,98.1,
3180,98.1,
3179,98.09,
3178,98.09,
3177,98.09,
3176,98.1,
3175,98.1,
3174,98.1,
3173,98.1,
3172,98.08,
3171,98.07,
3170,98.06,
3169,98.06,
3168,98.05,
3167,98.05,
3166,98.06,
3165,98.06,
3164,98.06,
3163,98.05,
3162,98.04,
3161,98.02,
3160,98.01,
3159,98.01,
3158,98.02,
3157,98.02,
3156,98.01,
3155,98,
3154,98,
3153,97.99,
3152,97.99,
3151,97.98,
3150,97.97,
3149,97.95,
3148,97.94,
3147,97.93,
3146,97.92,
3145,97.91,
3144,97.9,
3143,97.89,
3142,97.88,
3141,97.87,
3140,97.86,
3139,97.83,
3138,97.8,
3137,97.78,
3136,97.75,
3135,97.73,
3134,97.71,
3133,97.69,
3132,97.68,
3131,97.67,
3130,97.67,
3129,97.67,
3128,97.67,
3127,97.67,
3126,97.68,
3125,97.68,
3124,97.69,
3123,97.7,
3122,97.71,
3121,97.72,
3120,97.72,
3119,97.72,
3118,97.72,
3117,97.71,
3116,97.71,
3115,97.7,
3114,97.68,
3113,97.66,
3112,97.65,
3111,97.64,
3110,97.63,
3109,97.61,
3108,97.6,
3107,97.57,
3106,97.56,
3105,97.54,
3104,97.53,
3103,97.52,
3102,97.51,
3101,97.49,
3100,97.47,
3099,97.45,
3098,97.42,
3097,97.4,
3096,97.38,
3095,97.36,
3094,97.33,
3093,97.3,
3092,97.27,
3091,97.24,
3090,97.2,
3089,97.16,
3088,97.11,
3087,97.07,
3086,97.03,
3085,96.98,
3084,96.93,
3083,96.87,
3082,96.8,
3081,96.73,
3080,96.64,
3079,96.54,
3078,96.43,
3077,96.32,
3076,96.2,
3075,96.08,
3074,95.96,
3073,95.85,
3072,95.75,
3071,95.66,
3070,95.59,
3069,95.53,
3068,95.48,
3067,95.44,
3066,95.41,
3065,95.39,
3064,95.36,
3063,95.34,
3062,95.33,
3061,95.31,
3060,95.28,
3059,95.26,
3058,95.24,
3057,95.22,
3056,95.2,
3055,95.19,
3054,95.18,
3053,95.18,
3052,95.18,
3051,95.19,
3050,95.2,
3049,95.23,
3048,95.26,
3047,95.3,
3046,95.35,
3045,95.4,
3044,95.44,
3043,95.49,
3042,95.53,
3041,95.56,
3040,95.59,
3039,95.61,
3038,95.64,
3037,95.66,
3036,95.67,
3035,95.68,
3034,95.67,
3033,95.66,
3032,95.65,
3031,95.62,
3030,95.58,
3029,95.51,
3028,95.42,
3027,95.31,
3026,95.18,
3025,95.06,
3024,94.96,
3023,94.86,
3022,94.75,
3021,94.61,
3020,94.42,
3019,94.17,
3018,93.88,
3017,93.59,
3016,93.33,
3015,93.14,
3014,93.07,
3013,93.12,
3012,93.26,
3011,93.45,
3010,93.65,
3009,93.83,
3008,93.97,
3007,94.08,
3006,94.15,
3005,94.17,
3004,94.16,
3003,94.13,
3002,94.07,
3001,94,
3000,93.91,
2999,93.79,
2998,93.64,
2997,93.47,
2996,93.27,
2995,93.05,
2994,92.82,
2993,92.56,
2992,92.28,
2991,91.98,
2990,91.67,
2989,91.37,
2988,91.09,
2987,90.84,
2986,90.62,
2985,90.43,
2984,90.27,
2983,90.17,
2982,90.11,
2981,90.1,
2980,90.15,
2979,90.24,
2978,90.38,
2977,90.55,
2976,90.76,
2975,90.98,
2974,91.19,
2973,91.4,
2972,91.59,
2971,91.76,
2970,91.9,
2969,92.02,
2968,92.1,
2967,92.16,
2966,92.19,
2965,92.2,
2964,92.2,
2963,92.18,
2962,92.13,
2961,92.07,
2960,91.98,
2959,91.89,
2958,91.78,
2957,91.68,
2956,91.59,
2955,91.51,
2954,91.43,
2953,91.37,
2952,91.31,
2951,91.25,
2950,91.2,
2949,91.16,
2948,91.12,
2947,91.08,
2946,91.04,
2945,91.02,
2944,90.99,
2943,90.98,
2942,90.98,
2941,90.99,
2940,91.02,
2939,91.04,
2938,91.07,
2937,91.08,
2936,91.09,
2935,91.08,
2934,91.05,
2933,91.02,
2932,90.97,
2931,90.91,
2930,90.84,
2929,90.76,
2928,90.67,
2927,90.57,
2926,90.47,
2925,90.36,
2924,90.25,
2923,90.13,
2922,90.01,
2921,89.89,
2920,89.77,
2919,89.65,
2918,89.53,
2917,89.41,
2916,89.29,
2915,89.17,
2914,89.03,
2913,88.88,
2912,88.72,
2911,88.54,
2910,88.35,
2909,88.14,
2908,87.93,
2907,87.7,
2906,87.46,
2905,87.21,
2904,86.94,
2903,86.65,
2902,86.37,
2901,86.08,
2900,85.78,
2899,85.48,
2898,85.18,
2897,84.86,
2896,84.55,
2895,84.23,
2894,83.91,
2893,83.58,
2892,83.25,
2891,82.91,
2890,82.58,
2889,82.26,
2888,81.96,
2887,81.69,
2886,81.47,
2885,81.31,
2884,81.23,
2883,81.22,
2882,81.27,
2881,81.37,
2880,81.51,
2879,81.67,
2878,81.86,
2877,82.05,
2876,82.26,
2875,82.48,
2874,82.7,
2873,82.93,
2872,83.15,
2871,83.37,
2870,83.57,
2869,83.76,
2868,83.93,
2867,84.07,
2866,84.18,
2865,84.26,
2864,84.3,
2863,84.31,
2862,84.29,
2861,84.24,
2860,84.17,
2859,84.08,
2858,83.98,
2857,83.86,
2856,83.73,
2855,83.6,
2854,83.46,
2853,83.33,
2852,83.19,
2851,83.07,
2850,82.95,
2849,82.84,
2848,82.75,
2847,82.67,
2846,82.61,
2845,82.54,
2844,82.48,
2843,82.41,
2842,82.34,
2841,82.26,
2840,82.16,
2839,82.04,
2838,81.9,
2837,81.75,
2836,81.59,
2835,81.45,
2834,81.34,
2833,81.26,
2832,81.23,
2831,81.24,
2830,81.3,
2829,81.42,
2828,81.59,
2827,81.81,
2826,82.07,
2825,82.37,
2824,82.69,
2823,83.04,
2822,83.38,
2821,83.73,
2820,84.08,
2819,84.42,
2818,84.75,
2817,85.06,
2816,85.35,
2815,85.62,
2814,85.87,
2813,86.09,
2812,86.3,
2811,86.49,
2810,86.67,
2809,86.83,
2808,86.98,
2807,87.13,
2806,87.27,
2805,87.4,
2804,87.53,
2803,87.66,
2802,87.79,
2801,87.91,
2800,88.03,
2799,88.15,
2798,88.27,
2797,88.37,
2796,88.48,
2795,88.58,
2794,88.67,
2793,88.76,
2792,88.84,
2791,88.9,
2790,88.95,
2789,88.98,
2788,89,
2787,88.99,
2786,88.97,
2785,88.93,
2784,88.88,
2783,88.82,
2782,88.74,
2781,88.64,
2780,88.53,
2779,88.4,
2778,88.25,
2777,88.1,
2776,87.93,
2775,87.76,
2774,87.58,
2773,87.4,
2772,87.2,
2771,87,
2770,86.78,
2769,86.55,
2768,86.29,
2767,86,
2766,85.69,
2765,85.35,
2764,84.98,
2763,84.57,
2762,84.13,
2761,83.67,
2760,83.17,
2759,82.66,
2758,82.12,
2757,81.58,
2756,81.02,
2755,80.46,
2754,79.91,
2753,79.38,
2752,78.86,
2751,78.37,
2750,77.92,
2749,77.5,
2748,77.14,
2747,76.84,
2746,76.59,
2745,76.41,
2744,76.29,
2743,76.24,
2742,76.25,
2741,76.31,
2740,76.44,
2739,76.62,
2738,76.84,
2737,77.11,
2736,77.41,
2735,77.74,
2734,78.09,
2733,78.46,
2732,78.85,
2731,79.25,
2730,79.65,
2729,80.06,
2728,80.46,
2727,80.87,
2726,81.27,
2725,81.65,
2724,82.03,
2723,82.39,
2722,82.74,
2721,83.07,
2720,83.39,
2719,83.7,
2718,84,
2717,84.29,
2716,84.56,
2715,84.81,
2714,85.05,
2713,85.28,
2712,85.5,
2711,85.72,
2710,85.93,
2709,86.13,
2708,86.33,
2707,86.52,
2706,86.7,
2705,86.89,
2704,87.07,
2703,87.25,
2702,87.43,
2701,87.61,
2700,87.78,
2699,87.96,
2698,88.13,
2697,88.3,
2696,88.47,
2695,88.65,
2694,88.82,
2693,89,
2692,89.16,
2691,89.33,
2690,89.48,
2689,89.64,
2688,89.78,
2687,89.93,
2686,90.07,
2685,90.21,
2684,90.35,
2683,90.47,
2682,90.59,
2681,90.7,
2680,90.8,
2679,90.89,
2678,90.97,
2677,91.05,
2676,91.12,
2675,91.17,
2674,91.22,
2673,91.26,
2672,91.29,
2671,91.32,
2670,91.35,
2669,91.37,
2668,91.4,
2667,91.43,
2666,91.46,
2665,91.5,
2664,91.55,
2663,91.62,
2662,91.69,
2661,91.77,
2660,91.86,
2659,91.96,
2658,92.06,
2657,92.17,
2656,92.27,
2655,92.38,
2654,92.48,
2653,92.59,
2652,92.68,
2651,92.77,
2650,92.86,
2649,92.94,
2648,93.02,
2647,93.1,
2646,93.17,
2645,93.24,
2644,93.3,
2643,93.36,
2642,93.42,
2641,93.47,
2640,93.52,
2639,93.57,
2638,93.61,
2637,93.66,
2636,93.7,
2635,93.73,
2634,93.77,
2633,93.8,
2632,93.83,
2631,93.85,
2630,93.87,
2629,93.88,
2628,93.89,
2627,93.88,
2626,93.87,
2625,93.86,
2624,93.85,
2623,93.83,
2622,93.81,
2621,93.79,
2620,93.76,
2619,93.73,
2618,93.68,
2617,93.64,
2616,93.58,
2615,93.52,
2614,93.46,
2613,93.38,
2612,93.29,
2611,93.2,
2610,93.11,
2609,93.03,
2608,92.95,
2607,92.88,
2606,92.8,
2605,92.72,
2604,92.65,
2603,92.6,
2602,92.55,
2601,92.52,
2600,92.49,
2599,92.47,
2598,92.45,
2597,92.43,
2596,92.42,
2595,92.4,
2594,92.38,
2593,92.37,
2592,92.36,
2591,92.36,
2590,92.36,
2589,92.36,
2588,92.37,
2587,92.38,
2586,92.39,
2585,92.41,
2584,92.42,
2583,92.45,
2582,92.49,
2581,92.53,
2580,92.57,
2579,92.61,
2578,92.65,
2577,92.68,
2576,92.71,
2575,92.73,
2574,92.76,
2573,92.79,
2572,92.82,
2571,92.86,
2570,92.91,
2569,92.96,
2568,93,
2567,93.05,
2566,93.1,
2565,93.16,
2564,93.23,
2563,93.3,
2562,93.37,
2561,93.44,
2560,93.51,
2559,93.57,
2558,93.64,
2557,93.7,
2556,93.76,
2555,93.82,
2554,93.89,
2553,93.95,
2552,94.01,
2551,94.07,
2550,94.13,
2549,94.19,
2548,94.26,
2547,94.33,
2546,94.41,
2545,94.48,
2544,94.55,
2543,94.63,
2542,94.7,
2541,94.76,
2540,94.83,
2539,94.89,
2538,94.95,
2537,95.01,
2536,95.07,
2535,95.12,
2534,95.17,
2533,95.22,
2532,95.27,
2531,95.31,
2530,95.35,
2529,95.4,
2528,95.44,
2527,95.48,
2526,95.52,
2525,95.55,
2524,95.58,
2523,95.6,
2522,95.63,
2521,95.66,
2520,95.68,
2519,95.7,
2518,95.71,
2517,95.72,
2516,95.74,
2515,95.76,
2514,95.78,
2513,95.8,
2512,95.81,
2511,95.81,
2510,95.82,
2509,95.82,
2508,95.81,
2507,95.81,
2506,95.81,
2505,95.81,
2504,95.81,
2503,95.82,
2502,95.82,
2501,95.82,
2500,95.82,
2499,95.81,
2498,95.81,
2497,95.82,
2496,95.84,
2495,95.86,
2494,95.88,
2493,95.89,
2492,95.92,
2491,95.94,
2490,95.97,
2489,96,
2488,96.01,
2487,96.01,
2486,96.02,
2485,96.04,
2484,96.06,
2483,96.07,
2482,96.09,
2481,96.09,
2480,96.09,
2479,96.09,
2478,96.09,
2477,96.08,
2476,96.07,
2475,96.07,
2474,96.06,
2473,96.05,
2472,96.04,
2471,96.04,
2470,96.04,
2469,96.05,
2468,96.05,
2467,96.04,
2466,96.04,
2465,96.04,
2464,96.04,
2463,96.05,
2462,96.05,
2461,96.06,
2460,96.07,
2459,96.07,
2458,96.06,
2457,96.06,
2456,96.05,
2455,96.06,
2454,96.07,
2453,96.08,
2452,96.1,
2451,96.1,
2450,96.1,
2449,96.1,
2448,96.1,
2447,96.09,
2446,96.09,
2445,96.09,
2444,96.09,
2443,96.09,
2442,96.1,
2441,96.1,
2440,96.09,
2439,96.09,
2438,96.09,
2437,96.09,
2436,96.09,
2435,96.09,
2434,96.1,
2433,96.11,
2432,96.12,
2431,96.13,
2430,96.14,
2429,96.15,
2428,96.15,
2427,96.15,
2426,96.15,
2425,96.15,
2424,96.16,
2423,96.16,
2422,96.18,
2421,96.2,
2420,96.22,
2419,96.23,
2418,96.25,
2417,96.26,
2416,96.26,
2415,96.27,
2414,96.27,
2413,96.27,
2412,96.27,
2411,96.26,
2410,96.25,
2409,96.27,
2408,96.29,
2407,96.31,
2406,96.33,
2405,96.35,
2404,96.35,
2403,96.35,
2402,96.36,
2401,96.37,
2400,96.38,
2399,96.38,
2398,96.39,
2397,96.39,
2396,96.4,
2395,96.4,
2394,96.41,
2393,96.42,
2392,96.42,
2391,96.41,
2390,96.41,
2389,96.4,
2388,96.4,
2387,96.41,
2386,96.42,
2385,96.43,
2384,96.43,
2383,96.44,
2382,96.46,
2381,96.47,
2380,96.49,
2379,96.5,
2378,96.51,
2377,96.5,
2376,96.49,
2375,96.49,
2374,96.49,
2373,96.49,
2372,96.51,
2371,96.53,
2370,96.55,
2369,96.57,
2368,96.58,
2367,96.58,
2366,96.57,
2365,96.55,
2364,96.53,
2363,96.5,
2362,96.48,
2361,96.45,
2360,96.44,
2359,96.44,
2358,96.44,
2357,96.44,
2356,96.43,
2355,96.42,
2354,96.41,
2353,96.39,
2352,96.38,
2351,96.38,
2350,96.38,
2349,96.35,
2348,96.33,
2347,96.32,
2346,96.34,
2345,96.38,
2344,96.41,
2343,96.4,
2342,96.34,
2341,96.28,
2340,96.22,
2339,96.17,
2338,96.13,
2337,96.11,
2336,96.11,
2335,96.1,
2334,96.09,
2333,96.07,
2332,96.06,
2331,96.06,
2330,96.06,
2329,96.03,
2328,95.96,
2327,95.84,
2326,95.71,
2325,95.59,
2324,95.54,
2323,95.55,
2322,95.59,
2321,95.64,
2320,95.67,
2319,95.68,
2318,95.69,
2317,95.69,
2316,95.7,
2315,95.71,
2314,95.72,
2313,95.74,
2312,95.74,
2311,95.74,
2310,95.74,
2309,95.73,
2308,95.73,
2307,95.72,
2306,95.72,
2305,95.71,
2304,95.72,
2303,95.72,
2302,95.72,
2301,95.71,
2300,95.7,
2299,95.69,
2298,95.68,
2297,95.68,
2296,95.67,
2295,95.66,
2294,95.65,
2293,95.63,
2292,95.61,
2291,95.59,
2290,95.57,
2289,95.55,
2288,95.53,
2287,95.53,
2286,95.53,
2285,95.53,
2284,95.55,
2283,95.56,
2282,95.58,
2281,95.6,
2280,95.62,
2279,95.63,
2278,95.64,
2277,95.65,
2276,95.66,
2275,95.66,
2274,95.66,
2273,95.66,
2272,95.68,
2271,95.7,
2270,95.72,
2269,95.74,
2268,95.74,
2267,95.75,
2266,95.76,
2265,95.77,
2264,95.78,
2263,95.78,
2262,95.78,
2261,95.78,
2260,95.76,
2259,95.74,
2258,95.71,
2257,95.71,
2256,95.73,
2255,95.78,
2254,95.82,
2253,95.83,
2252,95.81,
2251,95.78,
2250,95.75,
2249,95.72,
2248,95.69,
2247,95.67,
2246,95.65,
2245,95.65,
2244,95.64,
2243,95.64,
2242,95.64,
2241,95.63,
2240,95.62,
2239,95.61,
2238,95.62,
2237,95.63,
2236,95.63,
2235,95.63,
2234,95.62,
2233,95.61,
2232,95.59,
2231,95.59,
2230,95.58,
2229,95.56,
2228,95.54,
2227,95.54,
2226,95.55,
2225,95.55,
2224,95.55,
2223,95.54,
2222,95.53,
2221,95.54,
2220,95.54,
2219,95.54,
2218,95.53,
2217,95.53,
2216,95.53,
2215,95.54,
2214,95.54,
2213,95.5,
2212,95.44,
2211,95.4,
2210,95.4,
2209,95.43,
2208,95.45,
2207,95.46,
2206,95.46,
2205,95.44,
2204,95.41,
2203,95.37,
2202,95.33,
2201,95.3,
2200,95.28,
2199,95.27,
2198,95.27,
2197,95.25,
2196,95.23,
2195,95.23,
2194,95.25,
2193,95.28,
2192,95.28,
2191,95.26,
2190,95.22,
2189,95.18,
2188,95.15,
2187,95.15,
2186,95.15,
2185,95.16,
2184,95.18,
2183,95.2,
2182,95.23,
2181,95.23,
2180,95.21,
2179,95.18,
2178,95.16,
2177,95.17,
2176,95.18,
2175,95.18,
2174,95.15,
2173,95.08,
2172,94.99,
2171,94.89,
2170,94.81,
2169,94.72,
2168,94.64,
2167,94.58,
2166,94.54,
2165,94.51,
2164,94.47,
2163,94.45,
2162,94.51,
2161,94.7,
2160,95.04,
2159,95.45,
2158,95.77,
2157,95.88,
2156,95.83,
2155,95.71,
2154,95.61,
2153,95.52,
2152,95.44,
2151,95.39,
2150,95.36,
2149,95.34,
2148,95.33,
2147,95.34,
2146,95.36,
2145,95.37,
2144,95.38,
2143,95.39,
2142,95.4,
2141,95.39,
2140,95.36,
2139,95.34,
2138,95.33,
2137,95.34,
2136,95.36,
2135,95.4,
2134,95.44,
2133,95.46,
2132,95.43,
2131,95.39,
2130,95.33,
2129,95.26,
2128,95.17,
2127,95.1,
2126,95.05,
2125,95.02,
2124,94.99,
2123,94.97,
2122,94.94,
2121,94.9,
2120,94.86,
2119,94.83,
2118,94.81,
2117,94.78,
2116,94.74,
2115,94.7,
2114,94.65,
2113,94.61,
2112,94.58,
2111,94.58,
2110,94.59,
2109,94.6,
2108,94.59,
2107,94.58,
2106,94.56,
2105,94.55,
2104,94.56,
2103,94.57,
2102,94.58,
2101,94.56,
2100,94.54,
2099,94.52,
2098,94.52,
2097,94.53,
2096,94.56,
2095,94.59,
2094,94.61,
2093,94.59,
2092,94.54,
2091,94.48,
2090,94.44,
2089,94.42,
2088,94.42,
2087,94.42,
2086,94.42,
2085,94.41,
2084,94.4,
2083,94.39,
2082,94.39,
2081,94.4,
2080,94.4,
2079,94.4,
2078,94.39,
2077,94.39,
2076,94.38,
2075,94.39,
2074,94.41,
2073,94.42,
2072,94.42,
2071,94.41,
2070,94.41,
2069,94.41,
2068,94.41,
2067,94.4,
2066,94.4,
2065,94.4,
2064,94.4,
2063,94.4,
2062,94.39,
2061,94.36,
2060,94.31,
2059,94.26,
2058,94.22,
2057,94.19,
2056,94.15,
2055,94.12,
2054,94.06,
2053,93.96,
2052,93.85,
2051,93.78,
2050,93.78,
2049,93.83,
2048,93.9,
2047,93.98,
2046,94.06,
2045,94.13,
2044,94.19,
2043,94.26,
2042,94.34,
2041,94.4,
2040,94.43,
2039,94.45,
2038,94.46,
2037,94.49,
2036,94.55,
2035,94.65,
2034,94.78,
2033,94.9,
2032,94.98,
2031,95.03,
2030,95.03,
2029,95.01,
2028,94.98,
2027,94.96,
2026,94.95,
2025,94.94,
2024,94.93,
2023,94.96,
2022,95.01,
2021,95.08,
2020,95.14,
2019,95.18,
2018,95.19,
2017,95.16,
2016,95.13,
2015,95.13,
2014,95.15,
2013,95.15,
2012,95.1,
2011,95.04,
2010,95.01,
2009,95.05,
2008,95.15,
2007,95.28,
2006,95.38,
2005,95.41,
2004,95.35,
2003,95.27,
2002,95.19,
2001,95.11,
2000,95.06,
1999,95.04,
1998,95.06,
1997,95.08,
1996,95.09,
1995,95.11,
1994,95.12,
1993,95.11,
1992,95.08,
1991,95.06,
1990,95.05,
1989,95.02,
1988,94.97,
1987,94.93,
1986,94.91,
1985,94.88,
1984,94.84,
1983,94.8,
1982,94.74,
1981,94.69,
1980,94.69,
1979,94.78,
1978,94.93,
1977,95.07,
1976,95.14,
1975,95.17,
1974,95.18,
1973,95.17,
1972,95.13,
1971,95.12,
1970,95.13,
1969,95.12,
1968,95.09,
1967,95.07,
1966,95.05,
1965,95.03,
1964,94.99,
1963,94.96,
1962,94.96,
1961,94.99,
1960,95.01,
1959,95.03,
1958,95.02,
1957,94.96,
1956,94.86,
1955,94.76,
1954,94.67,
1953,94.58,
1952,94.48,
1951,94.4,
1950,94.32,
1949,94.23,
1948,94.13,
1947,94.05,
1946,93.98,
1945,93.91,
1944,93.81,
1943,93.69,
1942,93.57,
1941,93.45,
1940,93.34,
1939,93.24,
1938,93.17,
1937,93.09,
1936,93.03,
1935,92.99,
1934,92.97,
1933,92.96,
1932,92.95,
1931,92.95,
1930,92.98,
1929,93.02,
1928,93.08,
1927,93.15,
1926,93.24,
1925,93.34,
1924,93.43,
1923,93.53,
1922,93.62,
1921,93.69,
1920,93.77,
1919,93.86,
1918,93.97,
1917,94.06,
1916,94.14,
1915,94.22,
1914,94.31,
1913,94.39,
1912,94.47,
1911,94.55,
1910,94.62,
1909,94.67,
1908,94.71,
1907,94.77,
1906,94.83,
1905,94.9,
1904,94.97,
1903,95.03,
1902,95.09,
1901,95.15,
1900,95.2,
1899,95.26,
1898,95.32,
1897,95.37,
1896,95.41,
1895,95.44,
1894,95.47,
1893,95.49,
1892,95.51,
1891,95.54,
1890,95.58,
1889,95.61,
1888,95.63,
1887,95.66,
1886,95.68,
1885,95.7,
1884,95.7,
1883,95.71,
1882,95.73,
1881,95.74,
1880,95.73,
1879,95.73,
1878,95.73,
1877,95.73,
1876,95.73,
1875,95.73,
1874,95.74,
1873,95.74,
1872,95.73,
1871,95.72,
1870,95.71,
1869,95.7,
1868,95.67,
1867,95.65,
1866,95.63,
1865,95.63,
1864,95.62,
1863,95.61,
1862,95.61,
1861,95.6,
1860,95.57,
1859,95.54,
1858,95.5,
1857,95.46,
1856,95.4,
1855,95.35,
1854,95.29,
1853,95.23,
1852,95.16,
1851,95.09,
1850,95.02,
1849,94.95,
1848,94.87,
1847,94.79,
1846,94.71,
1845,94.61,
1844,94.5,
1843,94.37,
1842,94.25,
1841,94.11,
1840,93.97,
1839,93.82,
1838,93.67,
1837,93.5,
1836,93.32,
1835,93.14,
1834,92.95,
1833,92.73,
1832,92.48,
1831,92.21,
1830,91.91,
1829,91.56,
1828,91.2,
1827,90.83,
1826,90.46,
1825,90.08,
1824,89.69,
1823,89.3,
1822,88.92,
1821,88.54,
1820,88.15,
1819,87.73,
1818,87.28,
1817,86.75,
1816,86.15,
1815,85.48,
1814,84.75,
1813,83.97,
1812,83.17,
1811,82.4,
1810,81.68,
1809,81.05,
1808,80.51,
1807,80.06,
1806,79.69,
1805,79.39,
1804,79.15,
1803,78.97,
1802,78.85,
1801,78.76,
1800,78.7,
1799,78.65,
1798,78.6,
1797,78.53,
1796,78.44,
1795,78.34,
1794,78.22,
1793,78.11,
1792,77.99,
1791,77.87,
1790,77.76,
1789,77.68,
1788,77.67,
1787,77.72,
1786,77.83,
1785,77.97,
1784,78.1,
1783,78.18,
1782,78.19,
1781,78.12,
1780,77.93,
1779,77.63,
1778,77.2,
1777,76.67,
1776,76.08,
1775,75.49,
1774,74.96,
1773,74.57,
1772,74.39,
1771,74.44,
1770,74.73,
1769,75.26,
1768,76.03,
1767,76.97,
1766,77.97,
1765,78.97,
1764,79.99,
1763,81.05,
1762,82.11,
1761,83.11,
1760,84,
1759,84.79,
1758,85.53,
1757,86.26,
1756,86.94,
1755,87.55,
1754,88.07,
1753,88.55,
1752,89.03,
1751,89.48,
1750,89.87,
1749,90.2,
1748,90.49,
1747,90.76,
1746,91.03,
1745,91.28,
1744,91.53,
1743,91.77,
1742,92.01,
1741,92.25,
1740,92.48,
1739,92.7,
1738,92.87,
1737,93.01,
1736,93.15,
1735,93.3,
1734,93.44,
1733,93.51,
1732,93.52,
1731,93.5,
1730,93.49,
1729,93.46,
1728,93.41,
1727,93.33,
1726,93.23,
1725,93.11,
1724,92.96,
1723,92.79,
1722,92.62,
1721,92.45,
1720,92.27,
1719,92.07,
1718,91.84,
1717,91.56,
1716,91.28,
1715,91.04,
1714,90.83,
1713,90.63,
1712,90.42,
1711,90.22,
1710,90.02,
1709,89.82,
1708,89.63,
1707,89.43,
1706,89.23,
1705,89.03,
1704,88.83,
1703,88.65,
1702,88.49,
1701,88.32,
1700,88.1,
1699,87.85,
1698,87.56,
1697,87.28,
1696,86.98,
1695,86.68,
1694,86.36,
1693,86.02,
1692,85.66,
1691,85.27,
1690,84.85,
1689,84.41,
1688,83.98,
1687,83.59,
1686,83.24,
1685,82.93,
1684,82.65,
1683,82.42,
1682,82.2,
1681,81.96,
1680,81.67,
1679,81.29,
1678,80.76,
1677,79.99,
1676,78.81,
1675,77.12,
1674,74.93,
1673,72.32,
1672,69.3,
1671,65.85,
1670,62.11,
1669,58.4,
1668,55.1,
1667,52.42,
1666,50.36,
1665,48.81,
1664,47.7,
1663,47.09,
1662,47.06,
1661,47.59,
1660,48.58,
1659,49.94,
1658,51.57,
1657,53.31,
1656,55.07,
1655,56.88,
1654,58.82,
1653,60.8,
1652,62.53,
1651,63.94,
1650,65.16,
1649,66.3,
1648,67.4,
1647,68.4,
1646,69.26,
1645,70,
1644,70.66,
1643,71.29,
1642,71.95,
1641,72.64,
1640,73.31,
1639,73.96,
1638,74.59,
1637,75.21,
1636,75.8,
1635,76.34,
1634,76.81,
1633,77.22,
1632,77.59,
1631,77.94,
1630,78.29,
1629,78.62,
1628,78.92,
1627,79.19,
1626,79.44,
1625,79.69,
1624,79.93,
1623,80.15,
1622,80.34,
1621,80.52,
1620,80.68,
1619,80.84,
1618,80.98,
1617,81.09,
1616,81.17,
1615,81.22,
1614,81.25,
1613,81.27,
1612,81.25,
1611,81.2,
1610,81.1,
1609,80.96,
1608,80.79,
1607,80.61,
1606,80.46,
1605,80.36,
1604,80.33,
1603,80.39,
1602,80.54,
1601,80.78,
1600,81.07,
1599,81.4,
1598,81.73,
1597,82.05,
1596,82.36,
1595,82.63,
1594,82.88,
1593,83.1,
1592,83.31,
1591,83.5,
1590,83.69,
1589,83.88,
1588,84.07,
1587,84.25,
1586,84.43,
1585,84.59,
1584,84.75,
1583,84.89,
1582,85.02,
1581,85.15,
1580,85.27,
1579,85.38,
1578,85.49,
1577,85.6,
1576,85.71,
1575,85.79,
1574,85.86,
1573,85.94,
1572,86.03,
1571,86.13,
1570,86.23,
1569,86.3,
1568,86.35,
1567,86.4,
1566,86.45,
1565,86.51,
1564,86.57,
1563,86.63,
1562,86.69,
1561,86.73,
1560,86.79,
1559,86.86,
1558,86.92,
1557,86.96,
1556,87.01,
1555,87.05,
1554,87.1,
1553,87.14,
1552,87.18,
1551,87.21,
1550,87.25,
1549,87.29,
1548,87.32,
1547,87.36,
1546,87.4,
1545,87.44,
1544,87.48,
1543,87.5,
1542,87.51,
1541,87.54,
1540,87.57,
1539,87.61,
1538,87.64,
1537,87.66,
1536,87.68,
1535,87.71,
1534,87.75,
1533,87.79,
1532,87.81,
1531,87.82,
1530,87.85,
1529,87.88,
1528,87.91,
1527,87.93,
1526,87.96,
1525,87.98,
1524,88,
1523,88.02,
1522,88.03,
1521,88.05,
1520,88.06,
1519,88.06,
1518,88.07,
1517,88.08,
1516,88.08,
1515,88.09,
1514,88.09,
1513,88.1,
1512,88.12,
1511,88.13,
1510,88.13,
1509,88.14,
1508,88.16,
1507,88.16,
1506,88.17,
1505,88.2,
1504,88.21,
1503,88.22,
1502,88.25,
1501,88.29,
1500,88.33,
1499,88.37,
1498,88.41,
1497,88.43,
1496,88.45,
1495,88.46,
1494,88.46,
1493,88.45,
1492,88.45,
1491,88.44,
1490,88.4,
1489,88.32,
1488,88.24,
1487,88.14,
1486,88.05,
1485,87.93,
1484,87.8,
1483,87.66,
1482,87.51,
1481,87.34,
1480,87.15,
1479,86.95,
1478,86.72,
1477,86.44,
1476,86.09,
1475,85.67,
1474,85.16,
1473,84.57,
1472,83.9,
1471,83.22,
1470,82.52,
1469,81.77,
1468,80.97,
1467,80.13,
1466,79.31,
1465,78.63,
1464,78.16,
1463,77.94,
1462,77.89,
1461,77.88,
1460,77.84,
1459,77.71,
1458,77.49,
1457,77.31,
1456,77.32,
1455,77.55,
1454,77.91,
1453,78.29,
1452,78.6,
1451,78.77,
1450,78.8,
1449,78.76,
1448,78.71,
1447,78.72,
1446,78.82,
1445,79.05,
1444,79.42,
1443,79.89,
1442,80.44,
1441,81.03,
1440,81.6,
1439,82.14,
1438,82.66,
1437,83.13,
1436,83.52,
1435,83.78,
1434,83.92,
1433,84.01,
1432,84.04,
1431,84.01,
1430,83.93,
1429,83.79,
1428,83.61,
1427,83.4,
1426,83.17,
1425,82.93,
1424,82.68,
1423,82.43,
1422,82.19,
1421,81.95,
1420,81.69,
1419,81.38,
1418,81.02,
1417,80.64,
1416,80.21,
1415,79.74,
1414,79.19,
1413,78.58,
1412,77.9,
1411,77.19,
1410,76.46,
1409,75.78,
1408,75.17,
1407,74.68,
1406,74.31,
1405,74.05,
1404,73.84,
1403,73.66,
1402,73.43,
1401,73.11,
1400,72.65,
1399,72.07,
1398,71.44,
1397,70.79,
1396,70.11,
1395,69.39,
1394,68.66,
1393,67.98,
1392,67.45,
1391,67.12,
1390,67.05,
1389,67.22,
1388,67.59,
1387,68.11,
1386,68.71,
1385,69.35,
1384,70.03,
1383,70.76,
1382,71.51,
1381,72.27,
1380,73.02,
1379,73.72,
1378,74.36,
1377,74.93,
1376,75.45,
1375,75.92,
1374,76.36,
1373,76.77,
1372,77.16,
1371,77.54,
1370,77.91,
1369,78.27,
1368,78.62,
1367,78.95,
1366,79.27,
1365,79.57,
1364,79.85,
1363,80.11,
1362,80.34,
1361,80.55,
1360,80.75,
1359,80.94,
1358,81.11,
1357,81.27,
1356,81.42,
1355,81.57,
1354,81.69,
1353,81.81,
1352,81.91,
1351,82,
1350,82.09,
1349,82.16,
1348,82.22,
1347,82.28,
1346,82.33,
1345,82.37,
1344,82.4,
1343,82.42,
1342,82.44,
1341,82.44,
1340,82.45,
1339,82.46,
1338,82.47,
1337,82.48,
1336,82.5,
1335,82.51,
1334,82.52,
1333,82.54,
1332,82.57,
1331,82.6,
1330,82.62,
1329,82.63,
1328,82.63,
1327,82.61,
1326,82.56,
1325,82.48,
1324,82.37,
1323,82.23,
1322,82.07,
1321,81.86,
1320,81.62,
1319,81.34,
1318,81.03,
1317,80.69,
1316,80.33,
1315,79.96,
1314,79.6,
1313,79.24,
1312,78.93,
1311,78.65,
1310,78.43,
1309,78.26,
1308,78.16,
1307,78.15,
1306,78.22,
1305,78.39,
1304,78.66,
1303,78.99,
1302,79.38,
1301,79.8,
1300,80.23,
1299,80.64,
1298,81.03,
1297,81.39,
1296,81.71,
1295,82,
1294,82.24,
1293,82.45,
1292,82.66,
1291,82.87,
1290,83.1,
1289,83.32,
1288,83.54,
1287,83.73,
1286,83.88,
1285,83.99,
1284,84.08,
1283,84.14,
1282,84.19,
1281,84.24,
1280,84.31,
1279,84.42,
1278,84.55,
1277,84.71,
1276,84.87,
1275,85.03,
1274,85.17,
1273,85.31,
1272,85.43,
1271,85.54,
1270,85.64,
1269,85.73,
1268,85.81,
1267,85.9,
1266,86,
1265,86.1,
1264,86.2,
1263,86.29,
1262,86.37,
1261,86.43,
1260,86.5,
1259,86.55,
1258,86.6,
1257,86.65,
1256,86.7,
1255,86.75,
1254,86.79,
1253,86.83,
1252,86.88,
1251,86.93,
1250,86.98,
1249,87.02,
1248,87.06,
1247,87.09,
1246,87.12,
1245,87.16,
1244,87.2,
1243,87.23,
1242,87.25,
1241,87.27,
1240,87.28,
1239,87.3,
1238,87.3,
1237,87.3,
1236,87.29,
1235,87.27,
1234,87.24,
1233,87.2,
1232,87.16,
1231,87.11,
1230,87.06,
1229,87.01,
1228,86.95,
1227,86.9,
1226,86.85,
1225,86.8,
1224,86.75,
1223,86.7,
1222,86.65,
1221,86.59,
1220,86.53,
1219,86.46,
1218,86.35,
1217,86.22,
1216,86.05,
1215,85.85,
1214,85.59,
1213,85.27,
1212,84.87,
1211,84.39,
1210,83.84,
1209,83.22,
1208,82.56,
1207,81.86,
1206,81.18,
1205,80.54,
1204,79.98,
1203,79.54,
1202,79.23,
1201,79.06,
1200,79.03,
1199,79.15,
1198,79.37,
1197,79.66,
1196,79.98,
1195,80.3,
1194,80.6,
1193,80.86,
1192,81.07,
1191,81.24,
1190,81.36,
1189,81.43,
1188,81.45,
1187,81.43,
1186,81.37,
1185,81.27,
1184,81.15,
1183,81.02,
1182,80.89,
1181,80.76,
1180,80.63,
1179,80.51,
1178,80.36,
1177,80.17,
1176,79.91,
1175,79.54,
1174,79.04,
1173,78.37,
1172,77.51,
1171,76.39,
1170,74.99,
1169,73.31,
1168,71.39,
1167,69.34,
1166,67.33,
1165,65.56,
1164,64.22,
1163,63.46,
1162,63.3,
1161,63.67,
1160,64.42,
1159,65.38,
1158,66.38,
1157,67.33,
1156,68.16,
1155,68.88,
1154,69.52,
1153,70.12,
1152,70.72,
1151,71.39,
1150,72.15,
1149,72.97,
1148,73.82,
1147,74.65,
1146,75.39,
1145,76.02,
1144,76.52,
1143,76.9,
1142,77.18,
1141,77.39,
1140,77.59,
1139,77.79,
1138,78.02,
1137,78.26,
1136,78.48,
1135,78.66,
1134,78.79,
1133,78.86,
1132,78.89,
1131,78.9,
1130,78.88,
1129,78.88,
1128,78.88,
1127,78.91,
1126,78.95,
1125,79.02,
1124,79.11,
1123,79.23,
1122,79.36,
1121,79.5,
1120,79.66,
1119,79.82,
1118,79.97,
1117,80.11,
1116,80.23,
1115,80.35,
1114,80.46,
1113,80.56,
1112,80.67,
1111,80.77,
1110,80.86,
1109,80.95,
1108,81.03,
1107,81.11,
1106,81.18,
1105,81.23,
1104,81.28,
1103,81.31,
1102,81.32,
1101,81.32,
1100,81.32,
1099,81.31,
1098,81.3,
1097,81.29,
1096,81.28,
1095,81.27,
1094,81.26,
1093,81.25,
1092,81.23,
1091,81.21,
1090,81.19,
1089,81.19,
1088,81.19,
1087,81.21,
1086,81.24,
1085,81.27,
1084,81.29,
1083,81.28,
1082,81.25,
1081,81.19,
1080,81.1,
1079,80.97,
1078,80.77,
1077,80.48,
1076,80.08,
1075,79.57,
1074,79.01,
1073,78.5,
1072,78.17,
1071,78.11,
1070,78.31,
1069,78.67,
1068,79.05,
1067,79.38,
1066,79.62,
1065,79.77,
1064,79.85,
1063,79.9,
1062,79.91,
1061,79.9,
1060,79.88,
1059,79.85,
1058,79.82,
1057,79.78,
1056,79.73,
1055,79.67,
1054,79.58,
1053,79.47,
1052,79.31,
1051,79.1,
1050,78.82,
1049,78.44,
1048,77.97,
1047,77.38,
1046,76.66,
1045,75.79,
1044,74.72,
1043,73.46,
1042,72,
1041,70.38,
1040,68.69,
1039,67.08,
1038,65.68,
1037,64.63,
1036,64.02,
1035,63.89,
1034,64.2,
1033,64.83,
1032,65.66,
1031,66.59,
1030,67.51,
1029,68.39,
1028,69.19,
1027,69.91,
1026,70.5,
1025,70.92,
1024,71.14,
1023,71.14,
1022,70.94,
1021,70.59,
1020,70.2,
1019,69.93,
1018,69.92,
1017,70.22,
1016,70.82,
1015,71.63,
1014,72.51,
1013,73.35,
1012,74.08,
1011,74.67,
1010,75.1,
1009,75.38,
1008,75.51,
1007,75.49,
1006,75.33,
1005,75.01,
1004,74.52,
1003,73.86,
1002,73.02,
1001,72.04,
1000,70.98,
999,69.9,
998,68.92,
997,68.14,
996,67.63,
995,67.43,
994,67.54,
993,67.9,
992,68.42,
991,69,
990,69.53,
989,69.93,
988,70.16,
987,70.21,
986,70.09,
985,69.85,
984,69.53,
983,69.17,
982,68.77,
981,68.35,
980,67.92,
979,67.49,
978,67.08,
977,66.7,
976,66.35,
975,66.06,
974,65.84,
973,65.72,
972,65.72,
971,65.87,
970,66.17,
969,66.62,
968,67.17,
967,67.81,
966,68.5,
965,69.23,
964,69.97,
963,70.73,
962,71.47,
961,72.18,
960,72.84,
959,73.47,
958,74.05,
957,74.6,
956,75.1,
955,75.56,
954,75.99,
953,76.37,
952,76.72,
951,77.01,
950,77.25,
949,77.42,
948,77.53,
947,77.58,
946,77.59,
945,77.57,
944,77.55,
943,77.57,
942,77.63,
941,77.74,
940,77.89,
939,78.09,
938,78.32,
937,78.58,
936,78.87,
935,79.15,
934,79.41,
933,79.63,
932,79.8,
931,79.91,
930,79.97,
929,79.97,
928,79.88,
927,79.69,
926,79.36,
925,78.86,
924,78.16,
923,77.23,
922,76.08,
921,74.7,
920,73.13,
919,71.41,
918,69.58,
917,67.72,
916,65.88,
915,64.13,
914,62.54,
913,61.16,
912,60.06,
911,59.27,
910,58.81,
909,58.66,
908,58.81,
907,59.21,
906,59.83,
905,60.63,
904,61.56,
903,62.59,
902,63.67,
901,64.78,
900,65.89,
899,66.98,
898,68.01,
897,68.98,
896,69.86,
895,70.67,
894,71.41,
893,72.09,
892,72.7,
891,73.26,
890,73.77,
889,74.23,
888,74.65,
887,75.02,
886,75.35,
885,75.63,
884,75.88,
883,76.11,
882,76.3,
881,76.48,
880,76.63,
879,76.77,
878,76.89,
877,77,
876,77.11,
875,77.21,
874,77.29,
873,77.35,
872,77.41,
871,77.45,
870,77.48,
869,77.49,
868,77.49,
867,77.47,
866,77.43,
865,77.37,
864,77.28,
863,77.16,
862,76.98,
861,76.75,
860,76.44,
859,76.05,
858,75.59,
857,75.06,
856,74.49,
855,73.9,
854,73.34,
853,72.85,
852,72.45,
851,72.17,
850,71.99,
849,71.93,
848,71.98,
847,72.13,
846,72.36,
845,72.64,
844,72.95,
843,73.27,
842,73.57,
841,73.84,
840,74.07,
839,74.22,
838,74.29,
837,74.27,
836,74.15,
835,73.95,
834,73.66,
833,73.25,
832,72.71,
831,72.01,
830,71.15,
829,70.11,
828,68.9,
827,67.54,
826,66.09,
825,64.62,
824,63.22,
823,61.99,
822,61.02,
821,60.39,
820,60.15,
819,60.33,
818,60.91,
817,61.79,
816,62.82,
815,63.77,
814,64.41,
813,64.48,
812,63.84,
811,62.4,
810,60.24,
809,57.55,
808,54.64,
807,51.86,
806,49.52,
805,47.85,
804,46.95,
803,46.81,
802,47.35,
801,48.44,
800,49.95,
799,51.69,
798,53.47,
797,55.13,
796,56.52,
795,57.58,
794,58.28,
793,58.67,
792,58.79,
791,58.69,
790,58.39,
789,57.87,
788,57.18,
787,56.37,
786,55.56,
785,54.85,
784,54.36,
783,54.2,
782,54.45,
781,55.13,
780,56.18,
779,57.49,
778,58.89,
777,60.23,
776,61.39,
775,62.33,
774,63.04,
773,63.56,
772,63.98,
771,64.37,
770,64.81,
769,65.35,
768,66.01,
767,66.77,
766,67.61,
765,68.49,
764,69.39,
763,70.26,
762,71.07,
761,71.81,
760,72.48,
759,73.11,
758,73.67,
757,74.18,
756,74.64,
755,75.04,
754,75.39,
753,75.71,
752,76,
751,76.26,
750,76.48,
749,76.66,
748,76.8,
747,76.9,
746,76.98,
745,77.04,
744,77.11,
743,77.18,
742,77.27,
741,77.38,
740,77.49,
739,77.61,
738,77.72,
737,77.79,
736,77.82,
735,77.78,
734,77.66,
733,77.46,
732,77.16,
731,76.75,
730,76.19,
729,75.47,
728,74.6,
727,73.59,
726,72.45,
725,71.24,
724,70,
723,68.78,
722,67.61,
721,66.51,
720,65.55,
719,64.77,
718,64.22,
717,63.97,
716,64.06,
715,64.47,
714,65.18,
713,66.17,
712,67.39,
711,68.74,
710,70.16,
709,71.6,
708,73.03,
707,74.4,
706,75.69,
705,76.86,
704,77.93,
703,78.9,
702,79.74,
701,80.47,
700,81.09,
699,81.58,
698,81.93,
697,82.15,
696,82.26,
695,82.34,
694,82.46,
693,82.7,
692,83.09,
691,83.58,
690,84.09,
689,84.59,
688,85.05,
687,85.46,
686,85.83,
685,86.15,
684,86.44,
683,86.69,
682,86.91,
681,87.12,
680,87.32,
679,87.51,
678,87.68,
677,87.84,
676,87.99,
675,88.14,
674,88.29,
673,88.45,
672,88.61,
671,88.75,
670,88.87,
669,88.98,
668,89.08,
667,89.13,
666,89.2,
665,89.32,
664,89.43,
663,89.5,
662,89.49,
661,89.44,
660,89.39,
659,89.37,
658,89.41,
657,89.53,
656,89.7,
655,89.86,
654,89.97,
653,89.99,
652,89.94,
651,89.81,
650,89.61,
649,89.3,
648,88.85,
647,88.27,
646,87.56,
645,86.74,
644,85.86,
643,84.99,
642,84.18,
641,83.51,
640,83.03,
639,82.78,
638,82.78,
637,82.99,
636,83.32,
635,83.7,
634,84.06,
633,84.38,
632,84.65,
631,84.89,
630,85.14,
629,85.44,
628,85.8,
627,86.23,
626,86.7,
625,87.2,
624,87.69,
623,88.17,
622,88.61,
621,89.02,
620,89.38,
619,89.73,
618,90.05,
617,90.35,
616,90.62,
615,90.86,
614,91.08,
613,91.27,
612,91.44,
611,91.6,
610,91.74,
609,91.87,
608,91.98,
607,92.09,
606,92.19,
605,92.29,
604,92.39,
603,92.46,
602,92.48,
601,92.47,
600,92.46,
599,92.46,
598,92.46,
597,92.47,
596,92.47,
595,92.45,
594,92.4,
593,92.35,
592,92.28,
591,92.2,
590,92.14,
589,92.08,
588,92.02,
587,91.95,
586,91.86,
585,91.76,
584,91.63,
583,91.46,
582,91.26,
581,91.04,
580,90.86,
579,90.73,
578,90.63,
577,90.57,
576,90.56,
575,90.57,
574,90.62,
573,90.7,
572,90.81,
571,90.92,
570,91,
569,91.02,
568,91,
567,90.92,
566,90.75,
565,90.49,
564,90.11,
563,89.6,
562,88.96,
561,88.17,
560,87.2,
559,86.1,
558,84.92,
557,83.75,
556,82.69,
555,81.87,
554,81.38,
553,81.25,
552,81.5,
551,82.07,
550,82.9,
549,83.84,
548,84.76,
547,85.59,
546,86.31,
545,86.97,
544,87.58,
543,88.11,
542,88.56,
541,88.93,
540,89.22,
539,89.44,
538,89.57,
537,89.62,
536,89.59,
535,89.51,
534,89.44,
533,89.43,
532,89.56,
531,89.82,
530,90.19,
529,90.61,
528,91.02,
527,91.37,
526,91.63,
525,91.82,
524,91.99,
523,92.15,
522,92.29,
521,92.41,
520,92.45,
519,92.38,
518,92.21,
517,91.99,
516,91.74,
515,91.42,
514,90.98,
513,90.37,
512,89.58,
511,88.51,
510,87.09,
509,85.31,
508,83.2,
507,80.95,
506,78.86,
505,77.27,
504,76.47,
503,76.54,
502,77.43,
501,78.9,
500,80.69,
499,82.55,
498,84.28,
497,85.75,
496,86.94,
495,87.88,
494,88.61,
493,89.16,
492,89.58,
491,89.92,
490,90.2,
489,90.43,
488,90.61,
487,90.73,
486,90.84,
485,90.95,
484,91.07,
483,91.18,
482,91.24,
481,91.29,
480,91.34,
479,91.41,
478,91.45,
477,91.46,
476,91.45,
475,91.41,
474,91.36,
473,91.3,
472,91.22,
471,91.11,
470,90.95,
469,90.75,
468,90.52,
467,90.22,
466,89.86,
465,89.41,
464,88.93,
463,88.45,
462,88,
461,87.56,
460,87.09,
459,86.52,
458,85.86,
457,85.16,
456,84.44,
455,83.78,
454,83.24,
453,82.92,
452,82.91,
451,83.21,
450,83.71,
